     Time          X           Y           Z      L1_error        q0          q1          q2          q3         Phi        Theta        Psi       norm q - 1
  0.1000E-02 -0.8394E-19 -0.1962E-33  0.4900E-05  0.5590E+03  0.1000E+01  0.4104E-20  0.6853E-13  0.2097E-29  0.0000E+00 -0.0000E+00  0.0000E+00  0.0000E+00
  0.1000E+01 -0.1674E-02  0.4295E-04  0.4776E+01  0.5612E+03  0.9995E+00  0.1286E-02  0.3160E-01  0.3707E-06  0.1475E+00  0.3622E+01  0.4708E-02 -0.1998E-14
  0.2000E+01 -0.2255E+00  0.2216E-01  0.1795E+02  0.5675E+03  0.9147E+00  0.5539E-01  0.4004E+00  0.1424E-02  0.8655E+01  0.4708E+02  0.3954E+01 -0.2554E-14
  0.3000E+01 -0.6885E+00  0.1755E+00  0.3844E+02  0.5778E+03  0.2294E-01  0.2303E+00  0.9728E+00 -0.2282E-03  0.1794E+03  0.2564E+01  0.1533E+03 -0.3331E-14
  0.4000E+01 -0.1067E+01 -0.3671E-01  0.6225E+02  0.5904E+03  0.2693E+00  0.3210E+00  0.8854E+00 -0.2014E+00 -0.1666E+03  0.3732E+02  0.1447E+03 -0.3442E-14
  0.5000E+01 -0.1182E+01 -0.1273E+01  0.8983E+02  0.6058E+03  0.3294E+00  0.2903E+00  0.8961E+00  0.6503E-01  0.1583E+03  0.3355E+02  0.1375E+03 -0.1998E-14
  0.6000E+01  0.1022E+01 -0.2919E+01  0.1196E+03  0.6217E+03  0.3183E+00  0.4035E+00  0.8415E+00 -0.1667E+00 -0.1782E+03  0.4208E+02  0.1295E+03 -0.2554E-14
  0.7000E+01  0.4655E+01 -0.6219E+01  0.1507E+03  0.6390E+03  0.1552E+00  0.5120E+00  0.8248E+00 -0.1827E+00 -0.1709E+03  0.2630E+02  0.1185E+03  0.6661E-15
  0.8000E+01  0.8287E+01 -0.1199E+02  0.1823E+03  0.6587E+03  0.1785E+00  0.5732E+00  0.7775E+00 -0.1875E+00 -0.1743E+03  0.2951E+02  0.1087E+03  0.4441E-14
  0.9000E+01  0.1161E+02 -0.1971E+02  0.2140E+03  0.6807E+03  0.1707E+00  0.6384E+00  0.7319E+00 -0.1665E+00 -0.1783E+03  0.2754E+02  0.9822E+02  0.6661E-14
  0.1000E+02  0.1480E+02 -0.2894E+02  0.2456E+03  0.7046E+03  0.1374E+00  0.6936E+00  0.6888E+00 -0.1601E+00 -0.1781E+03  0.2429E+02  0.9001E+02  0.4885E-14
  0.1100E+02  0.1757E+02 -0.3936E+02  0.2768E+03  0.7302E+03  0.9839E-01  0.7337E+00  0.6463E+00 -0.1849E+00 -0.1741E+03  0.2349E+02  0.8398E+02  0.5995E-14
  0.1200E+02  0.1924E+02 -0.5061E+02  0.3078E+03  0.7576E+03  0.6789E-01  0.7647E+00  0.6092E+00 -0.1989E+00 -0.1714E+03  0.2276E+02  0.7882E+02  0.5773E-14
  0.1300E+02  0.1940E+02 -0.6232E+02  0.3385E+03  0.7869E+03  0.4991E-01  0.7910E+00  0.5766E+00 -0.1985E+00 -0.1707E+03  0.2182E+02  0.7397E+02  0.7994E-14
  0.1400E+02  0.1797E+02 -0.7417E+02  0.3692E+03  0.8177E+03  0.4850E-01  0.8139E+00  0.5469E+00 -0.1897E+00 -0.1721E+03  0.2122E+02  0.6929E+02  0.9992E-14
  0.1500E+02  0.1516E+02 -0.8601E+02  0.3997E+03  0.8496E+03  0.5309E-01  0.8342E+00  0.5189E+00 -0.1789E+00 -0.1740E+03  0.2071E+02  0.6486E+02  0.1021E-13
  0.1600E+02  0.1130E+02 -0.9779E+02  0.4300E+03  0.8824E+03  0.5480E-01  0.8516E+00  0.4925E+00 -0.1713E+00 -0.1754E+03  0.2022E+02  0.6090E+02  0.1021E-13
  0.1700E+02  0.6608E+01 -0.1095E+03  0.4602E+03  0.9156E+03  0.5407E-01  0.8661E+00  0.4682E+00 -0.1668E+00 -0.1762E+03  0.1985E+02  0.5746E+02  0.1110E-13
  0.1800E+02  0.1240E+01 -0.1210E+03  0.4903E+03  0.9492E+03  0.5132E-01  0.8780E+00  0.4466E+00 -0.1645E+00 -0.1765E+03  0.1956E+02  0.5452E+02  0.1199E-13
  0.1900E+02 -0.4722E+01 -0.1325E+03  0.5203E+03  0.9829E+03  0.4662E-01  0.8876E+00  0.4279E+00 -0.1640E+00 -0.1765E+03  0.1933E+02  0.5207E+02  0.9326E-14
  0.2000E+02 -0.1125E+02 -0.1436E+03  0.5502E+03  0.1017E+04  0.4165E-01  0.8953E+00  0.4120E+00 -0.1640E+00 -0.1763E+03  0.1915E+02  0.5004E+02  0.1266E-13
  0.2100E+02 -0.1832E+02 -0.1545E+03  0.5800E+03  0.1050E+04  0.3802E-01  0.9017E+00  0.3984E+00 -0.1638E+00 -0.1762E+03  0.1900E+02  0.4830E+02  0.1332E-13
  0.2200E+02 -0.2592E+02 -0.1651E+03  0.6098E+03  0.1083E+04  0.3588E-01  0.9070E+00  0.3867E+00 -0.1631E+00 -0.1763E+03  0.1888E+02  0.4680E+02  0.1177E-13
  0.2300E+02 -0.3402E+02 -0.1754E+03  0.6396E+03  0.1116E+04  0.3489E-01  0.9114E+00  0.3766E+00 -0.1622E+00 -0.1765E+03  0.1877E+02  0.4549E+02  0.1155E-13
  0.2400E+02 -0.4257E+02 -0.1852E+03  0.6694E+03  0.1148E+04  0.3544E-01  0.9152E+00  0.3678E+00 -0.1609E+00 -0.1768E+03  0.1869E+02  0.4432E+02  0.1155E-13
  0.2500E+02 -0.5153E+02 -0.1948E+03  0.6992E+03  0.1180E+04  0.3777E-01  0.9186E+00  0.3599E+00 -0.1591E+00 -0.1773E+03  0.1863E+02  0.4324E+02  0.7772E-14
  0.2600E+02 -0.6081E+02 -0.2040E+03  0.7289E+03  0.1211E+04  0.4112E-01  0.9215E+00  0.3527E+00 -0.1571E+00 -0.1779E+03  0.1858E+02  0.4224E+02  0.1021E-13
  0.2700E+02 -0.7035E+02 -0.2130E+03  0.7586E+03  0.1241E+04  0.4426E-01  0.9241E+00  0.3462E+00 -0.1553E+00 -0.1784E+03  0.1853E+02  0.4133E+02  0.1177E-13
  0.2800E+02 -0.8008E+02 -0.2219E+03  0.7884E+03  0.1271E+04  0.4653E-01  0.9264E+00  0.3404E+00 -0.1540E+00 -0.1789E+03  0.1848E+02  0.4053E+02  0.1421E-13
  0.2900E+02 -0.8994E+02 -0.2306E+03  0.8181E+03  0.1299E+04  0.4790E-01  0.9284E+00  0.3353E+00 -0.1532E+00 -0.1792E+03  0.1845E+02  0.3985E+02  0.1399E-13
  0.3000E+02 -0.9990E+02 -0.2392E+03  0.8478E+03  0.1327E+04  0.4871E-01  0.9300E+00  0.3308E+00 -0.1526E+00 -0.1794E+03  0.1843E+02  0.3926E+02  0.1199E-13
  0.3100E+02 -0.1099E+03 -0.2478E+03  0.8774E+03  0.1354E+04  0.4919E-01  0.9314E+00  0.3269E+00 -0.1523E+00 -0.1795E+03  0.1841E+02  0.3876E+02  0.1599E-13
  0.3200E+02 -0.1200E+03 -0.2563E+03  0.9071E+03  0.1380E+04  0.4937E-01  0.9325E+00  0.3237E+00 -0.1521E+00 -0.1796E+03  0.1840E+02  0.3835E+02  0.1910E-13
  0.3300E+02 -0.1302E+03 -0.2647E+03  0.9368E+03  0.1406E+04  0.4921E-01  0.9335E+00  0.3210E+00 -0.1521E+00 -0.1797E+03  0.1839E+02  0.3801E+02  0.1865E-13
  0.3400E+02 -0.1403E+03 -0.2732E+03  0.9665E+03  0.1431E+04  0.4877E-01  0.9343E+00  0.3188E+00 -0.1522E+00 -0.1796E+03  0.1839E+02  0.3774E+02  0.1754E-13
  0.3500E+02 -0.1505E+03 -0.2815E+03  0.9961E+03  0.1455E+04  0.4818E-01  0.9349E+00  0.3170E+00 -0.1523E+00 -0.1796E+03  0.1838E+02  0.3752E+02  0.1710E-13
  0.3600E+02 -0.1608E+03 -0.2898E+03  0.1026E+04  0.1478E+04  0.4761E-01  0.9354E+00  0.3156E+00 -0.1525E+00 -0.1796E+03  0.1838E+02  0.3736E+02  0.1821E-13
  0.3700E+02 -0.1711E+03 -0.2981E+03  0.1055E+04  0.1500E+04  0.4719E-01  0.9357E+00  0.3144E+00 -0.1526E+00 -0.1795E+03  0.1838E+02  0.3722E+02  0.2043E-13
  0.3800E+02 -0.1814E+03 -0.3063E+03  0.1085E+04  0.1522E+04  0.4694E-01  0.9360E+00  0.3135E+00 -0.1527E+00 -0.1795E+03  0.1838E+02  0.3711E+02  0.1932E-13
  0.3900E+02 -0.1918E+03 -0.3144E+03  0.1115E+04  0.1544E+04  0.4684E-01  0.9363E+00  0.3128E+00 -0.1527E+00 -0.1795E+03  0.1838E+02  0.3702E+02  0.1688E-13
  0.4000E+02 -0.2023E+03 -0.3225E+03  0.1144E+04  0.1564E+04  0.4683E-01  0.9365E+00  0.3122E+00 -0.1527E+00 -0.1795E+03  0.1838E+02  0.3695E+02  0.1776E-13
  0.4100E+02 -0.2128E+03 -0.3305E+03  0.1174E+04  0.1585E+04  0.4688E-01  0.9367E+00  0.3117E+00 -0.1527E+00 -0.1796E+03  0.1838E+02  0.3688E+02  0.1776E-13
  0.4200E+02 -0.2233E+03 -0.3385E+03  0.1204E+04  0.1605E+04  0.4702E-01  0.9368E+00  0.3112E+00 -0.1526E+00 -0.1796E+03  0.1838E+02  0.3682E+02  0.1421E-13
  0.4300E+02 -0.2339E+03 -0.3464E+03  0.1233E+04  0.1624E+04  0.4729E-01  0.9369E+00  0.3108E+00 -0.1526E+00 -0.1796E+03  0.1838E+02  0.3677E+02  0.1599E-13
  0.4400E+02 -0.2445E+03 -0.3543E+03  0.1263E+04  0.1644E+04  0.4771E-01  0.9371E+00  0.3105E+00 -0.1524E+00 -0.1797E+03  0.1838E+02  0.3671E+02  0.1776E-13
  0.4500E+02 -0.2551E+03 -0.3621E+03  0.1293E+04  0.1663E+04  0.4824E-01  0.9372E+00  0.3101E+00 -0.1522E+00 -0.1798E+03  0.1838E+02  0.3666E+02  0.1732E-13
  0.4600E+02 -0.2658E+03 -0.3699E+03  0.1322E+04  0.1683E+04  0.4882E-01  0.9373E+00  0.3097E+00 -0.1520E+00 -0.1798E+03  0.1838E+02  0.3660E+02  0.1377E-13
  0.4700E+02 -0.2764E+03 -0.3777E+03  0.1352E+04  0.1702E+04  0.4938E-01  0.9374E+00  0.3094E+00 -0.1519E+00 -0.1799E+03  0.1838E+02  0.3654E+02  0.1399E-13
  0.4800E+02 -0.2871E+03 -0.3854E+03  0.1382E+04  0.1722E+04  0.4985E-01  0.9376E+00  0.3090E+00 -0.1517E+00 -0.1800E+03  0.1838E+02  0.3649E+02  0.1488E-13
  0.4900E+02 -0.2978E+03 -0.3932E+03  0.1411E+04  0.1741E+04  0.5021E-01  0.9377E+00  0.3087E+00 -0.1516E+00  0.1800E+03  0.1838E+02  0.3644E+02  0.1399E-13
  0.5000E+02 -0.3085E+03 -0.4009E+03  0.1441E+04  0.1761E+04  0.5046E-01  0.9378E+00  0.3084E+00 -0.1515E+00  0.1799E+03  0.1837E+02  0.3639E+02  0.1577E-13
  0.5100E+02 -0.3192E+03 -0.4087E+03  0.1471E+04  0.1782E+04  0.5061E-01  0.9379E+00  0.3081E+00 -0.1514E+00  0.1799E+03  0.1837E+02  0.3636E+02  0.1532E-13
  0.5200E+02 -0.3298E+03 -0.4165E+03  0.1500E+04  0.1803E+04  0.5071E-01  0.9379E+00  0.3079E+00 -0.1514E+00  0.1799E+03  0.1837E+02  0.3632E+02  0.1421E-13
  0.5300E+02 -0.3405E+03 -0.4243E+03  0.1530E+04  0.1824E+04  0.5076E-01  0.9380E+00  0.3076E+00 -0.1514E+00  0.1799E+03  0.1837E+02  0.3630E+02  0.1532E-13
  0.5400E+02 -0.3511E+03 -0.4321E+03  0.1560E+04  0.1847E+04  0.5078E-01  0.9381E+00  0.3075E+00 -0.1514E+00  0.1799E+03  0.1837E+02  0.3627E+02  0.1310E-13
  0.5500E+02 -0.3618E+03 -0.4399E+03  0.1589E+04  0.1869E+04  0.5076E-01  0.9381E+00  0.3073E+00 -0.1514E+00  0.1799E+03  0.1837E+02  0.3626E+02  0.1577E-13
  0.5600E+02 -0.3724E+03 -0.4478E+03  0.1619E+04  0.1893E+04  0.5068E-01  0.9382E+00  0.3072E+00 -0.1514E+00  0.1799E+03  0.1837E+02  0.3624E+02  0.2975E-13
  0.5700E+02 -0.3830E+03 -0.4557E+03  0.1649E+04  0.1917E+04  0.5053E-01  0.9382E+00  0.3071E+00 -0.1514E+00  0.1799E+03  0.1837E+02  0.3624E+02  0.2909E-13
  0.5800E+02 -0.3936E+03 -0.4635E+03  0.1678E+04  0.1942E+04  0.5033E-01  0.9382E+00  0.3071E+00 -0.1515E+00  0.1799E+03  0.1837E+02  0.3624E+02  0.3153E-13
  0.5900E+02 -0.4042E+03 -0.4714E+03  0.1708E+04  0.1968E+04  0.5009E-01  0.9382E+00  0.3071E+00 -0.1516E+00  0.1799E+03  0.1837E+02  0.3624E+02  0.3086E-13
  0.6000E+02 -0.4148E+03 -0.4793E+03  0.1738E+04  0.1994E+04  0.4984E-01  0.9382E+00  0.3071E+00 -0.1517E+00  0.1800E+03  0.1837E+02  0.3625E+02  0.4663E-13
  0.6100E+02 -0.4253E+03 -0.4872E+03  0.1767E+04  0.2021E+04  0.4960E-01  0.9382E+00  0.3072E+00 -0.1518E+00 -0.1800E+03  0.1837E+02  0.3626E+02  0.4508E-13
  0.6200E+02 -0.4359E+03 -0.4951E+03  0.1797E+04  0.2049E+04  0.4939E-01  0.9381E+00  0.3072E+00 -0.1518E+00 -0.1800E+03  0.1837E+02  0.3627E+02  0.4130E-13
  0.6300E+02 -0.4465E+03 -0.5030E+03  0.1827E+04  0.2077E+04  0.4923E-01  0.9381E+00  0.3073E+00 -0.1519E+00 -0.1799E+03  0.1837E+02  0.3628E+02  0.4086E-13
  0.6400E+02 -0.4571E+03 -0.5109E+03  0.1856E+04  0.2106E+04  0.4911E-01  0.9381E+00  0.3074E+00 -0.1519E+00 -0.1799E+03  0.1837E+02  0.3629E+02  0.4419E-13
  0.6500E+02 -0.4677E+03 -0.5188E+03  0.1886E+04  0.2136E+04  0.4903E-01  0.9381E+00  0.3074E+00 -0.1519E+00 -0.1799E+03  0.1837E+02  0.3631E+02  0.4552E-13
  0.6600E+02 -0.4783E+03 -0.5266E+03  0.1916E+04  0.2166E+04  0.4899E-01  0.9381E+00  0.3075E+00 -0.1520E+00 -0.1799E+03  0.1837E+02  0.3631E+02  0.5085E-13
  0.6700E+02 -0.4889E+03 -0.5345E+03  0.1945E+04  0.2197E+04  0.4896E-01  0.9380E+00  0.3076E+00 -0.1520E+00 -0.1799E+03  0.1837E+02  0.3632E+02  0.2842E-13
  0.6800E+02 -0.4995E+03 -0.5423E+03  0.1975E+04  0.2228E+04  0.4895E-01  0.9380E+00  0.3076E+00 -0.1520E+00 -0.1799E+03  0.1837E+02  0.3633E+02  0.4552E-13
  0.6900E+02 -0.5102E+03 -0.5502E+03  0.2005E+04  0.2260E+04  0.4895E-01  0.9380E+00  0.3077E+00 -0.1520E+00 -0.1799E+03  0.1837E+02  0.3633E+02  0.4619E-13
  0.7000E+02 -0.5208E+03 -0.5580E+03  0.2034E+04  0.2292E+04  0.4896E-01  0.9380E+00  0.3077E+00 -0.1520E+00 -0.1799E+03  0.1837E+02  0.3634E+02 -0.1221E-14
  0.7100E+02 -0.5315E+03 -0.5658E+03  0.2064E+04  0.2324E+04  0.4900E-01  0.9380E+00  0.3077E+00 -0.1520E+00 -0.1799E+03  0.1837E+02  0.3634E+02  0.1554E-13
  0.7200E+02 -0.5421E+03 -0.5736E+03  0.2094E+04  0.2356E+04  0.4907E-01  0.9380E+00  0.3077E+00 -0.1519E+00 -0.1799E+03  0.1837E+02  0.3634E+02  0.1021E-13
  0.7300E+02 -0.5528E+03 -0.5813E+03  0.2123E+04  0.2388E+04  0.4917E-01  0.9380E+00  0.3077E+00 -0.1519E+00 -0.1799E+03  0.1837E+02  0.3634E+02  0.1221E-13
  0.7400E+02 -0.5635E+03 -0.5891E+03  0.2153E+04  0.2420E+04  0.4930E-01  0.9380E+00  0.3077E+00 -0.1519E+00 -0.1799E+03  0.1838E+02  0.3633E+02  0.1177E-13
  0.7500E+02 -0.5742E+03 -0.5969E+03  0.2183E+04  0.2453E+04  0.4944E-01  0.9380E+00  0.3077E+00 -0.1518E+00 -0.1800E+03  0.1838E+02  0.3633E+02  0.1865E-13
  0.7600E+02 -0.5849E+03 -0.6046E+03  0.2212E+04  0.2485E+04  0.4959E-01  0.9380E+00  0.3076E+00 -0.1518E+00 -0.1800E+03  0.1838E+02  0.3632E+02 -0.7994E-14
  0.7700E+02 -0.5955E+03 -0.6124E+03  0.2242E+04  0.2517E+04  0.4973E-01  0.9380E+00  0.3076E+00 -0.1517E+00 -0.1800E+03  0.1837E+02  0.3631E+02 -0.1110E-14
  0.7800E+02 -0.6062E+03 -0.6201E+03  0.2272E+04  0.2548E+04  0.4986E-01  0.9380E+00  0.3075E+00 -0.1517E+00  0.1800E+03  0.1837E+02  0.3630E+02  0.3109E-14
  0.7900E+02 -0.6169E+03 -0.6279E+03  0.2301E+04  0.2580E+04  0.4997E-01  0.9381E+00  0.3075E+00 -0.1516E+00  0.1800E+03  0.1837E+02  0.3629E+02 -0.2998E-14
  0.8000E+02 -0.6276E+03 -0.6356E+03  0.2331E+04  0.2610E+04  0.5005E-01  0.9381E+00  0.3074E+00 -0.1516E+00  0.1800E+03  0.1837E+02  0.3628E+02 -0.2665E-14
  0.8100E+02 -0.6383E+03 -0.6434E+03  0.2361E+04  0.2641E+04  0.5011E-01  0.9381E+00  0.3074E+00 -0.1516E+00  0.1799E+03  0.1837E+02  0.3627E+02 -0.3331E-14
  0.8200E+02 -0.6490E+03 -0.6512E+03  0.2390E+04  0.2671E+04  0.5016E-01  0.9381E+00  0.3073E+00 -0.1516E+00  0.1799E+03  0.1837E+02  0.3627E+02 -0.1288E-13
  0.8300E+02 -0.6596E+03 -0.6589E+03  0.2420E+04  0.2701E+04  0.5019E-01  0.9381E+00  0.3073E+00 -0.1516E+00  0.1799E+03  0.1837E+02  0.3626E+02 -0.2220E-14
  0.8400E+02 -0.6703E+03 -0.6667E+03  0.2450E+04  0.2731E+04  0.5020E-01  0.9381E+00  0.3072E+00 -0.1516E+00  0.1799E+03  0.1837E+02  0.3626E+02  0.2132E-13
  0.8500E+02 -0.6810E+03 -0.6745E+03  0.2479E+04  0.2760E+04  0.5021E-01  0.9382E+00  0.3072E+00 -0.1516E+00  0.1799E+03  0.1837E+02  0.3625E+02 -0.2942E-13
  0.8600E+02 -0.6916E+03 -0.6823E+03  0.2509E+04  0.2788E+04  0.5022E-01  0.9382E+00  0.3072E+00 -0.1516E+00  0.1799E+03  0.1837E+02  0.3625E+02 -0.5129E-13
  0.8700E+02 -0.7023E+03 -0.6901E+03  0.2539E+04  0.2816E+04  0.5021E-01  0.9382E+00  0.3071E+00 -0.1516E+00  0.1799E+03  0.1837E+02  0.3624E+02 -0.8127E-13
  0.8800E+02 -0.7129E+03 -0.6979E+03  0.2568E+04  0.2844E+04  0.5020E-01  0.9382E+00  0.3071E+00 -0.1516E+00  0.1799E+03  0.1837E+02  0.3624E+02 -0.1457E-12
  0.8900E+02 -0.7235E+03 -0.7058E+03  0.2598E+04  0.2872E+04  0.5018E-01  0.9382E+00  0.3071E+00 -0.1516E+00  0.1799E+03  0.1837E+02  0.3624E+02 -0.1654E-12
  0.9000E+02 -0.7342E+03 -0.7136E+03  0.2628E+04  0.2899E+04  0.5014E-01  0.9382E+00  0.3071E+00 -0.1516E+00  0.1799E+03  0.1837E+02  0.3624E+02 -0.1741E-12
  0.9100E+02 -0.7448E+03 -0.7214E+03  0.2657E+04  0.2926E+04  0.5008E-01  0.9382E+00  0.3071E+00 -0.1516E+00  0.1799E+03  0.1837E+02  0.3624E+02 -0.1679E-12
  0.9200E+02 -0.7554E+03 -0.7293E+03  0.2687E+04  0.2953E+04  0.5001E-01  0.9382E+00  0.3071E+00 -0.1516E+00  0.1800E+03  0.1837E+02  0.3624E+02 -0.1719E-12
  0.9300E+02 -0.7660E+03 -0.7371E+03  0.2717E+04  0.2980E+04  0.4993E-01  0.9382E+00  0.3071E+00 -0.1516E+00  0.1800E+03  0.1837E+02  0.3625E+02 -0.1745E-12
  0.9400E+02 -0.7766E+03 -0.7450E+03  0.2746E+04  0.3007E+04  0.4985E-01  0.9382E+00  0.3071E+00 -0.1517E+00  0.1800E+03  0.1837E+02  0.3625E+02 -0.1847E-12
  0.9500E+02 -0.7872E+03 -0.7529E+03  0.2776E+04  0.3034E+04  0.4976E-01  0.9382E+00  0.3072E+00 -0.1517E+00  0.1800E+03  0.1837E+02  0.3626E+02 -0.1322E-12
  0.9600E+02 -0.7978E+03 -0.7607E+03  0.2806E+04  0.3061E+04  0.4967E-01  0.9382E+00  0.3072E+00 -0.1517E+00 -0.1800E+03  0.1837E+02  0.3626E+02 -0.1359E-12
  0.9700E+02 -0.8085E+03 -0.7686E+03  0.2835E+04  0.3089E+04  0.4960E-01  0.9381E+00  0.3072E+00 -0.1518E+00 -0.1800E+03  0.1837E+02  0.3627E+02 -0.1550E-12
  0.9800E+02 -0.8191E+03 -0.7765E+03  0.2865E+04  0.3117E+04  0.4953E-01  0.9381E+00  0.3073E+00 -0.1518E+00 -0.1800E+03  0.1837E+02  0.3628E+02 -0.1316E-12
  0.9900E+02 -0.8297E+03 -0.7843E+03  0.2895E+04  0.3145E+04  0.4948E-01  0.9381E+00  0.3073E+00 -0.1518E+00 -0.1800E+03  0.1837E+02  0.3628E+02 -0.1599E-12
  0.1000E+03 -0.8403E+03 -0.7922E+03  0.2924E+04  0.3174E+04  0.4944E-01  0.9381E+00  0.3074E+00 -0.1518E+00 -0.1800E+03  0.1837E+02  0.3629E+02 -0.1548E-12
  0.1010E+03 -0.8509E+03 -0.8000E+03  0.2954E+04  0.3204E+04  0.4941E-01  0.9381E+00  0.3074E+00 -0.1518E+00 -0.1800E+03  0.1837E+02  0.3629E+02 -0.1226E-12
  0.1020E+03 -0.8615E+03 -0.8079E+03  0.2984E+04  0.3235E+04  0.4939E-01  0.9381E+00  0.3074E+00 -0.1518E+00 -0.1800E+03  0.1837E+02  0.3630E+02 -0.1676E-12
  0.1030E+03 -0.8721E+03 -0.8157E+03  0.3013E+04  0.3266E+04  0.4937E-01  0.9381E+00  0.3074E+00 -0.1518E+00 -0.1800E+03  0.1837E+02  0.3630E+02 -0.1906E-12
  0.1040E+03 -0.8828E+03 -0.8235E+03  0.3043E+04  0.3298E+04  0.4936E-01  0.9381E+00  0.3075E+00 -0.1518E+00 -0.1800E+03  0.1837E+02  0.3630E+02 -0.2192E-12
  0.1050E+03 -0.8934E+03 -0.8314E+03  0.3073E+04  0.3331E+04  0.4936E-01  0.9381E+00  0.3075E+00 -0.1518E+00 -0.1800E+03  0.1837E+02  0.3630E+02 -0.2198E-12
  0.1060E+03 -0.9040E+03 -0.8392E+03  0.3102E+04  0.3366E+04  0.4936E-01  0.9381E+00  0.3075E+00 -0.1518E+00 -0.1800E+03  0.1837E+02  0.3631E+02 -0.2276E-12
  0.1070E+03 -0.9147E+03 -0.8470E+03  0.3132E+04  0.3401E+04  0.4936E-01  0.9381E+00  0.3075E+00 -0.1518E+00 -0.1800E+03  0.1837E+02  0.3631E+02 -0.2449E-12
  0.1080E+03 -0.9253E+03 -0.8548E+03  0.3162E+04  0.3438E+04  0.4936E-01  0.9380E+00  0.3075E+00 -0.1518E+00 -0.1800E+03  0.1837E+02  0.3631E+02 -0.2820E-12
  0.1090E+03 -0.9360E+03 -0.8626E+03  0.3191E+04  0.3476E+04  0.4937E-01  0.9380E+00  0.3075E+00 -0.1518E+00 -0.1800E+03  0.1837E+02  0.3631E+02 -0.2864E-12
  0.1100E+03 -0.9466E+03 -0.8704E+03  0.3221E+04  0.3515E+04  0.4939E-01  0.9380E+00  0.3075E+00 -0.1518E+00 -0.1800E+03  0.1837E+02  0.3631E+02 -0.3078E-12
  0.1110E+03 -0.9573E+03 -0.8782E+03  0.3251E+04  0.3556E+04  0.4942E-01  0.9380E+00  0.3075E+00 -0.1518E+00 -0.1800E+03  0.1837E+02  0.3631E+02 -0.3283E-12
  0.1120E+03 -0.9680E+03 -0.8860E+03  0.3280E+04  0.3597E+04  0.4946E-01  0.9380E+00  0.3075E+00 -0.1518E+00 -0.1800E+03  0.1837E+02  0.3631E+02 -0.3715E-12
  0.1130E+03 -0.9786E+03 -0.8938E+03  0.3310E+04  0.3640E+04  0.4950E-01  0.9380E+00  0.3075E+00 -0.1518E+00 -0.1800E+03  0.1837E+02  0.3631E+02 -0.3368E-12
  0.1140E+03 -0.9893E+03 -0.9016E+03  0.3340E+04  0.3684E+04  0.4955E-01  0.9381E+00  0.3075E+00 -0.1518E+00 -0.1800E+03  0.1837E+02  0.3631E+02 -0.3160E-12
  0.1150E+03 -0.1000E+04 -0.9093E+03  0.3369E+04  0.3729E+04  0.4961E-01  0.9381E+00  0.3075E+00 -0.1518E+00 -0.1800E+03  0.1837E+02  0.3630E+02 -0.3105E-12
  0.1160E+03 -0.1011E+04 -0.9171E+03  0.3399E+04  0.3775E+04  0.4966E-01  0.9381E+00  0.3075E+00 -0.1517E+00 -0.1800E+03  0.1837E+02  0.3630E+02 -0.3112E-12
  0.1170E+03 -0.1021E+04 -0.9249E+03  0.3429E+04  0.3822E+04  0.4972E-01  0.9381E+00  0.3075E+00 -0.1517E+00 -0.1800E+03  0.1837E+02  0.3629E+02 -0.3140E-12
  0.1180E+03 -0.1032E+04 -0.9327E+03  0.3458E+04  0.3870E+04  0.4977E-01  0.9381E+00  0.3074E+00 -0.1517E+00  0.1800E+03  0.1837E+02  0.3629E+02 -0.3072E-12
  0.1190E+03 -0.1043E+04 -0.9404E+03  0.3488E+04  0.3919E+04  0.4981E-01  0.9381E+00  0.3074E+00 -0.1517E+00  0.1800E+03  0.1837E+02  0.3629E+02 -0.2918E-12
  0.1200E+03 -0.1053E+04 -0.9482E+03  0.3518E+04  0.3968E+04  0.4985E-01  0.9381E+00  0.3074E+00 -0.1517E+00  0.1800E+03  0.1837E+02  0.3628E+02 -0.2600E-12
  0.1210E+03 -0.1064E+04 -0.9560E+03  0.3547E+04  0.4018E+04  0.4988E-01  0.9381E+00  0.3074E+00 -0.1517E+00  0.1800E+03  0.1837E+02  0.3628E+02 -0.2673E-12
  0.1220E+03 -0.1075E+04 -0.9638E+03  0.3577E+04  0.4068E+04  0.4991E-01  0.9381E+00  0.3073E+00 -0.1517E+00  0.1800E+03  0.1837E+02  0.3628E+02 -0.3070E-12
  0.1230E+03 -0.1085E+04 -0.9715E+03  0.3607E+04  0.4119E+04  0.4993E-01  0.9381E+00  0.3073E+00 -0.1517E+00  0.1800E+03  0.1837E+02  0.3627E+02 -0.3355E-12
  0.1240E+03 -0.1096E+04 -0.9793E+03  0.3636E+04  0.4170E+04  0.4994E-01  0.9381E+00  0.3073E+00 -0.1516E+00  0.1800E+03  0.1837E+02  0.3627E+02 -0.3586E-12
