     Time          X           Y           Z      L1_error        q0          q1          q2          q3         Phi        Theta        Psi       norm q - 1
  0.1000E-02  0.5000E+03  0.1900E-01 -0.2500E+03  0.1525E-10  0.7055E+00 -0.4728E-01  0.6149E-02  0.7071E+00 -0.3336E+01  0.4332E+01  0.9000E+02  0.2220E-15
  0.1000E+01  0.4996E+03  0.1900E+02 -0.2500E+03  0.6785E-05  0.6920E+00 -0.4739E-01  0.5250E-02  0.7204E+00 -0.3336E+01  0.4332E+01  0.9218E+02  0.6661E-15
  0.2000E+01  0.4986E+03  0.3796E+02 -0.2500E+03  0.1050E-04  0.6782E+00 -0.4748E-01  0.4349E-02  0.7334E+00 -0.3336E+01  0.4332E+01  0.9435E+02 -0.2109E-14
  0.3000E+01  0.4968E+03  0.5688E+02 -0.2500E+03  0.9847E-05  0.6641E+00 -0.4755E-01  0.3446E-02  0.7461E+00 -0.3336E+01  0.4332E+01  0.9653E+02 -0.3109E-14
  0.4000E+01  0.4942E+03  0.7571E+02 -0.2500E+03  0.9401E-05  0.6498E+00 -0.4761E-01  0.2542E-02  0.7586E+00 -0.3336E+01  0.4332E+01  0.9871E+02 -0.1454E-13
  0.5000E+01  0.4910E+03  0.9443E+02 -0.2500E+03  0.9476E-05  0.6353E+00 -0.4765E-01  0.1637E-02  0.7708E+00 -0.3336E+01  0.4332E+01  0.1009E+03 -0.1543E-13
  0.6000E+01  0.4871E+03  0.1130E+03 -0.2500E+03  0.9527E-05  0.6205E+00 -0.4767E-01  0.7315E-03  0.7827E+00 -0.3336E+01  0.4332E+01  0.1031E+03 -0.2442E-13
  0.7000E+01  0.4824E+03  0.1314E+03 -0.2500E+03  0.9514E-05  0.6055E+00 -0.4768E-01 -0.1744E-03  0.7944E+00 -0.3336E+01  0.4332E+01  0.1052E+03 -0.3142E-13
  0.8000E+01  0.4771E+03  0.1497E+03 -0.2500E+03  0.9506E-05  0.5903E+00 -0.4767E-01 -0.1080E-02  0.8058E+00 -0.3336E+01  0.4332E+01  0.1074E+03  0.1288E-13
  0.9000E+01  0.4710E+03  0.1677E+03 -0.2500E+03  0.9508E-05  0.5749E+00 -0.4764E-01 -0.1986E-02  0.8168E+00 -0.3336E+01  0.4332E+01  0.1096E+03  0.6417E-13
  0.1000E+02  0.4643E+03  0.1855E+03 -0.2500E+03  0.9508E-05  0.5593E+00 -0.4759E-01 -0.2890E-02  0.8276E+00 -0.3336E+01  0.4332E+01  0.1118E+03  0.1179E-12
  0.1100E+02  0.4570E+03  0.2030E+03 -0.2500E+03  0.9508E-05  0.5435E+00 -0.4753E-01 -0.3794E-02  0.8381E+00 -0.3336E+01  0.4332E+01  0.1139E+03  0.1714E-12
  0.1200E+02  0.4489E+03  0.2202E+03 -0.2500E+03  0.9508E-05  0.5274E+00 -0.4745E-01 -0.4696E-02  0.8483E+00 -0.3336E+01  0.4332E+01  0.1161E+03  0.2218E-12
  0.1300E+02  0.4402E+03  0.2371E+03 -0.2500E+03  0.9508E-05  0.5112E+00 -0.4735E-01 -0.5597E-02  0.8581E+00 -0.3336E+01  0.4332E+01  0.1183E+03  0.2729E-12
  0.1400E+02  0.4309E+03  0.2536E+03 -0.2500E+03  0.9508E-05  0.4948E+00 -0.4723E-01 -0.6495E-02  0.8677E+00 -0.3336E+01  0.4332E+01  0.1205E+03  0.3242E-12
  0.1500E+02  0.4210E+03  0.2698E+03 -0.2500E+03  0.9508E-05  0.4783E+00 -0.4710E-01 -0.7392E-02  0.8769E+00 -0.3336E+01  0.4332E+01  0.1227E+03  0.3768E-12
  0.1600E+02  0.4104E+03  0.2856E+03 -0.2500E+03  0.9508E-05  0.4615E+00 -0.4695E-01 -0.8285E-02  0.8858E+00 -0.3336E+01  0.4332E+01  0.1248E+03  0.4299E-12
  0.1700E+02  0.3992E+03  0.3010E+03 -0.2500E+03  0.9508E-05  0.4446E+00 -0.4679E-01 -0.9176E-02  0.8945E+00 -0.3336E+01  0.4332E+01  0.1270E+03  0.4812E-12
  0.1800E+02  0.3875E+03  0.3159E+03 -0.2500E+03  0.9508E-05  0.4275E+00 -0.4660E-01 -0.1006E-01  0.9027E+00 -0.3336E+01  0.4332E+01  0.1292E+03  0.5351E-12
  0.1900E+02  0.3752E+03  0.3304E+03 -0.2500E+03  0.9508E-05  0.4103E+00 -0.4640E-01 -0.1095E-01  0.9107E+00 -0.3336E+01  0.4332E+01  0.1314E+03  0.5851E-12
  0.2000E+02  0.3624E+03  0.3445E+03 -0.2500E+03  0.9508E-05  0.3929E+00 -0.4619E-01 -0.1183E-01  0.9183E+00 -0.3336E+01  0.4332E+01  0.1335E+03  0.6353E-12
  0.2100E+02  0.3491E+03  0.3580E+03 -0.2500E+03  0.9508E-05  0.3754E+00 -0.4596E-01 -0.1270E-01  0.9256E+00 -0.3336E+01  0.4332E+01  0.1357E+03  0.6906E-12
  0.2200E+02  0.3352E+03  0.3710E+03 -0.2500E+03  0.9508E-05  0.3578E+00 -0.4571E-01 -0.1357E-01  0.9326E+00 -0.3336E+01  0.4332E+01  0.1379E+03  0.7407E-12
  0.2300E+02  0.3209E+03  0.3835E+03 -0.2500E+03  0.9508E-05  0.3400E+00 -0.4544E-01 -0.1444E-01  0.9392E+00 -0.3336E+01  0.4332E+01  0.1401E+03  0.7914E-12
  0.2400E+02  0.3061E+03  0.3954E+03 -0.2500E+03  0.9508E-05  0.3221E+00 -0.4516E-01 -0.1530E-01  0.9455E+00 -0.3336E+01  0.4332E+01  0.1423E+03  0.8431E-12
  0.2500E+02  0.2908E+03  0.4067E+03 -0.2500E+03  0.9508E-05  0.3040E+00 -0.4486E-01 -0.1615E-01  0.9515E+00 -0.3336E+01  0.4332E+01  0.1444E+03  0.8946E-12
  0.2600E+02  0.2752E+03  0.4175E+03 -0.2500E+03  0.9508E-05  0.2859E+00 -0.4454E-01 -0.1700E-01  0.9571E+00 -0.3336E+01  0.4332E+01  0.1466E+03  0.9466E-12
  0.2700E+02  0.2591E+03  0.4276E+03 -0.2500E+03  0.9508E-05  0.2677E+00 -0.4421E-01 -0.1785E-01  0.9623E+00 -0.3336E+01  0.4332E+01  0.1488E+03  0.9985E-12
  0.2800E+02  0.2427E+03  0.4372E+03 -0.2500E+03  0.9508E-05  0.2493E+00 -0.4387E-01 -0.1868E-01  0.9672E+00 -0.3336E+01  0.4332E+01  0.1510E+03  0.1053E-11
  0.2900E+02  0.2259E+03  0.4461E+03 -0.2500E+03  0.9508E-05  0.2309E+00 -0.4350E-01 -0.1951E-01  0.9718E+00 -0.3336E+01  0.4332E+01  0.1531E+03  0.1105E-11
  0.3000E+02  0.2088E+03  0.4543E+03 -0.2500E+03  0.9508E-05  0.2124E+00 -0.4312E-01 -0.2034E-01  0.9760E+00 -0.3336E+01  0.4332E+01  0.1553E+03  0.1157E-11
  0.3100E+02  0.1914E+03  0.4619E+03 -0.2500E+03  0.9508E-05  0.1938E+00 -0.4273E-01 -0.2115E-01  0.9799E+00 -0.3336E+01  0.4332E+01  0.1575E+03  0.1209E-11
  0.3200E+02  0.1737E+03  0.4689E+03 -0.2500E+03  0.9508E-05  0.1752E+00 -0.4232E-01 -0.2196E-01  0.9834E+00 -0.3336E+01  0.4332E+01  0.1597E+03  0.1262E-11
  0.3300E+02  0.1558E+03  0.4751E+03 -0.2500E+03  0.9508E-05  0.1565E+00 -0.4190E-01 -0.2276E-01  0.9865E+00 -0.3336E+01  0.4332E+01  0.1618E+03  0.1316E-11
  0.3400E+02  0.1376E+03  0.4807E+03 -0.2500E+03  0.9508E-05  0.1377E+00 -0.4146E-01 -0.2355E-01  0.9893E+00 -0.3336E+01  0.4332E+01  0.1640E+03  0.1367E-11
  0.3500E+02  0.1192E+03  0.4856E+03 -0.2500E+03  0.9508E-05  0.1189E+00 -0.4100E-01 -0.2434E-01  0.9918E+00 -0.3336E+01  0.4332E+01  0.1662E+03  0.1418E-11
  0.3600E+02  0.1007E+03  0.4898E+03 -0.2500E+03  0.9508E-05  0.1000E+00 -0.4053E-01 -0.2511E-01  0.9938E+00 -0.3336E+01  0.4332E+01  0.1684E+03  0.1469E-11
  0.3700E+02  0.8203E+02  0.4932E+03 -0.2500E+03  0.9508E-05  0.8111E-01 -0.4005E-01 -0.2588E-01  0.9956E+00 -0.3336E+01  0.4332E+01  0.1706E+03  0.1520E-11
  0.3800E+02  0.6323E+02  0.4960E+03 -0.2500E+03  0.9508E-05  0.6219E-01 -0.3955E-01 -0.2663E-01  0.9969E+00 -0.3336E+01  0.4332E+01  0.1727E+03  0.1571E-11
  0.3900E+02  0.4434E+02  0.4980E+03 -0.2500E+03  0.9508E-05  0.4323E-01 -0.3903E-01 -0.2738E-01  0.9979E+00 -0.3336E+01  0.4332E+01  0.1749E+03  0.1623E-11
  0.4000E+02  0.2539E+02  0.4994E+03 -0.2500E+03  0.9508E-05  0.2427E-01 -0.3851E-01 -0.2811E-01  0.9986E+00 -0.3336E+01  0.4332E+01  0.1771E+03  0.1675E-11
  0.4100E+02  0.6398E+01  0.5000E+03 -0.2500E+03  0.9508E-05  0.5291E-02 -0.3797E-01 -0.2884E-01  0.9988E+00 -0.3336E+01  0.4332E+01  0.1793E+03  0.1724E-11
  0.4200E+02 -0.1260E+02  0.4998E+03 -0.2500E+03  0.9508E-05 -0.1369E-01 -0.3741E-01 -0.2956E-01  0.9988E+00 -0.3336E+01  0.4332E+01 -0.1786E+03  0.1777E-11
  0.4300E+02 -0.3158E+02  0.4990E+03 -0.2500E+03  0.9508E-05 -0.3266E-01 -0.3684E-01 -0.3026E-01  0.9983E+00 -0.3336E+01  0.4332E+01 -0.1764E+03  0.1826E-11
  0.4400E+02 -0.5052E+02  0.4974E+03 -0.2500E+03  0.9508E-05 -0.5162E-01 -0.3626E-01 -0.3096E-01  0.9975E+00 -0.3336E+01  0.4332E+01 -0.1742E+03  0.1876E-11
  0.4500E+02 -0.6938E+02  0.4952E+03 -0.2500E+03  0.9508E-05 -0.7056E-01 -0.3567E-01 -0.3164E-01  0.9964E+00 -0.3336E+01  0.4332E+01 -0.1720E+03  0.1931E-11
  0.4600E+02 -0.8814E+02  0.4922E+03 -0.2500E+03  0.9508E-05 -0.8948E-01 -0.3506E-01 -0.3231E-01  0.9948E+00 -0.3336E+01  0.4332E+01 -0.1698E+03  0.1980E-11
  0.4700E+02 -0.1068E+03  0.4885E+03 -0.2500E+03  0.9508E-05 -0.1084E+00 -0.3444E-01 -0.3297E-01  0.9930E+00 -0.3336E+01  0.4332E+01 -0.1677E+03  0.2035E-11
  0.4800E+02 -0.1253E+03  0.4841E+03 -0.2500E+03  0.9508E-05 -0.1272E+00 -0.3381E-01 -0.3362E-01  0.9907E+00 -0.3336E+01  0.4332E+01 -0.1655E+03  0.2088E-11
  0.4900E+02 -0.1436E+03  0.4789E+03 -0.2500E+03  0.9508E-05 -0.1460E+00 -0.3316E-01 -0.3426E-01  0.9881E+00 -0.3336E+01  0.4332E+01 -0.1633E+03  0.2142E-11
  0.5000E+02 -0.1616E+03  0.4732E+03 -0.2500E+03  0.9508E-05 -0.1648E+00 -0.3250E-01 -0.3488E-01  0.9852E+00 -0.3336E+01  0.4332E+01 -0.1611E+03  0.2194E-11
  0.5100E+02 -0.1795E+03  0.4667E+03 -0.2500E+03  0.9508E-05 -0.1834E+00 -0.3184E-01 -0.3549E-01  0.9819E+00 -0.3336E+01  0.4332E+01 -0.1590E+03  0.2243E-11
  0.5200E+02 -0.1971E+03  0.4595E+03 -0.2500E+03  0.9508E-05 -0.2021E+00 -0.3116E-01 -0.3609E-01  0.9782E+00 -0.3336E+01  0.4332E+01 -0.1568E+03  0.2296E-11
  0.5300E+02 -0.2144E+03  0.4517E+03 -0.2500E+03  0.9508E-05 -0.2206E+00 -0.3046E-01 -0.3668E-01  0.9742E+00 -0.3336E+01  0.4332E+01 -0.1546E+03  0.2347E-11
  0.5400E+02 -0.2314E+03  0.4432E+03 -0.2500E+03  0.9508E-05 -0.2391E+00 -0.2976E-01 -0.3725E-01  0.9698E+00 -0.3336E+01  0.4332E+01 -0.1524E+03  0.2397E-11
  0.5500E+02 -0.2481E+03  0.4341E+03 -0.2500E+03  0.9508E-05 -0.2575E+00 -0.2905E-01 -0.3781E-01  0.9651E+00 -0.3336E+01  0.4332E+01 -0.1503E+03  0.2447E-11
  0.5600E+02 -0.2644E+03  0.4244E+03 -0.2500E+03  0.9508E-05 -0.2758E+00 -0.2833E-01 -0.3835E-01  0.9600E+00 -0.3336E+01  0.4332E+01 -0.1481E+03  0.2498E-11
  0.5700E+02 -0.2803E+03  0.4140E+03 -0.2500E+03  0.9508E-05 -0.2939E+00 -0.2759E-01 -0.3888E-01  0.9546E+00 -0.3336E+01  0.4332E+01 -0.1459E+03  0.2553E-11
  0.5800E+02 -0.2959E+03  0.4031E+03 -0.2500E+03  0.9508E-05 -0.3120E+00 -0.2685E-01 -0.3940E-01  0.9489E+00 -0.3336E+01  0.4332E+01 -0.1437E+03  0.2605E-11
  0.5900E+02 -0.3110E+03  0.3915E+03 -0.2500E+03  0.9508E-05 -0.3300E+00 -0.2609E-01 -0.3990E-01  0.9428E+00 -0.3336E+01  0.4332E+01 -0.1415E+03  0.2660E-11
  0.6000E+02 -0.3256E+03  0.3794E+03 -0.2500E+03  0.9508E-05 -0.3479E+00 -0.2533E-01 -0.4039E-01  0.9363E+00 -0.3336E+01  0.4332E+01 -0.1394E+03  0.2714E-11
  0.6100E+02 -0.3398E+03  0.3668E+03 -0.2500E+03  0.9508E-05 -0.3656E+00 -0.2456E-01 -0.4087E-01  0.9296E+00 -0.3336E+01  0.4332E+01 -0.1372E+03  0.2764E-11
  0.6200E+02 -0.3535E+03  0.3536E+03 -0.2500E+03  0.9508E-05 -0.3832E+00 -0.2378E-01 -0.4133E-01  0.9224E+00 -0.3336E+01  0.4332E+01 -0.1350E+03  0.2815E-11
  0.6300E+02 -0.3667E+03  0.3399E+03 -0.2500E+03  0.9508E-05 -0.4006E+00 -0.2299E-01 -0.4177E-01  0.9150E+00 -0.3336E+01  0.4332E+01 -0.1328E+03  0.2867E-11
  0.6400E+02 -0.3793E+03  0.3258E+03 -0.2500E+03  0.9508E-05 -0.4179E+00 -0.2219E-01 -0.4220E-01  0.9072E+00 -0.3336E+01  0.4332E+01 -0.1307E+03  0.2921E-11
  0.6500E+02 -0.3914E+03  0.3111E+03 -0.2500E+03  0.9508E-05 -0.4351E+00 -0.2139E-01 -0.4261E-01  0.8991E+00 -0.3336E+01  0.4332E+01 -0.1285E+03  0.2976E-11
  0.6600E+02 -0.4030E+03  0.2960E+03 -0.2500E+03  0.9508E-05 -0.4521E+00 -0.2057E-01 -0.4301E-01  0.8907E+00 -0.3336E+01  0.4332E+01 -0.1263E+03  0.3026E-11
  0.6700E+02 -0.4139E+03  0.2805E+03 -0.2500E+03  0.9508E-05 -0.4689E+00 -0.1975E-01 -0.4339E-01  0.8819E+00 -0.3336E+01  0.4332E+01 -0.1241E+03  0.3078E-11
  0.6800E+02 -0.4243E+03  0.2646E+03 -0.2500E+03  0.9508E-05 -0.4856E+00 -0.1892E-01 -0.4376E-01  0.8729E+00 -0.3336E+01  0.4332E+01 -0.1219E+03  0.3129E-11
  0.6900E+02 -0.4340E+03  0.2483E+03 -0.2500E+03  0.9508E-05 -0.5021E+00 -0.1809E-01 -0.4411E-01  0.8635E+00 -0.3336E+01  0.4332E+01 -0.1198E+03  0.3179E-11
  0.7000E+02 -0.4431E+03  0.2316E+03 -0.2500E+03  0.9508E-05 -0.5184E+00 -0.1725E-01 -0.4445E-01  0.8538E+00 -0.3336E+01  0.4332E+01 -0.1176E+03  0.3227E-11
  0.7100E+02 -0.4516E+03  0.2146E+03 -0.2500E+03  0.9508E-05 -0.5346E+00 -0.1640E-01 -0.4477E-01  0.8438E+00 -0.3336E+01  0.4332E+01 -0.1154E+03  0.3280E-11
  0.7200E+02 -0.4594E+03  0.1973E+03 -0.2500E+03  0.9508E-05 -0.5505E+00 -0.1555E-01 -0.4507E-01  0.8335E+00 -0.3336E+01  0.4332E+01 -0.1132E+03  0.3332E-11
  0.7300E+02 -0.4666E+03  0.1797E+03 -0.2500E+03  0.9508E-05 -0.5662E+00 -0.1469E-01 -0.4536E-01  0.8229E+00 -0.3336E+01  0.4332E+01 -0.1111E+03  0.3382E-11
  0.7400E+02 -0.4731E+03  0.1618E+03 -0.2500E+03  0.9508E-05 -0.5818E+00 -0.1382E-01 -0.4563E-01  0.8120E+00 -0.3336E+01  0.4332E+01 -0.1089E+03  0.3434E-11
  0.7500E+02 -0.4789E+03  0.1437E+03 -0.2500E+03  0.9508E-05 -0.5971E+00 -0.1295E-01 -0.4589E-01  0.8008E+00 -0.3336E+01  0.4332E+01 -0.1067E+03  0.3485E-11
  0.7600E+02 -0.4840E+03  0.1254E+03 -0.2500E+03  0.9508E-05 -0.6122E+00 -0.1208E-01 -0.4612E-01  0.7893E+00 -0.3336E+01  0.4332E+01 -0.1045E+03  0.3538E-11
  0.7700E+02 -0.4884E+03  0.1070E+03 -0.2500E+03  0.9508E-05 -0.6271E+00 -0.1120E-01 -0.4634E-01  0.7775E+00 -0.3336E+01  0.4332E+01 -0.1024E+03  0.3590E-11
  0.7800E+02 -0.4921E+03  0.8833E+02 -0.2500E+03  0.9508E-05 -0.6417E+00 -0.1032E-01 -0.4655E-01  0.7654E+00 -0.3336E+01  0.4332E+01 -0.1002E+03  0.3643E-11
  0.7900E+02 -0.4951E+03  0.6957E+02 -0.2500E+03  0.9508E-05 -0.6562E+00 -0.9432E-02 -0.4674E-01  0.7531E+00 -0.3336E+01  0.4332E+01 -0.9800E+02  0.3692E-11
  0.8000E+02 -0.4974E+03  0.5071E+02 -0.2500E+03  0.9508E-05 -0.6703E+00 -0.8542E-02 -0.4691E-01  0.7405E+00 -0.3336E+01  0.4332E+01 -0.9582E+02  0.3743E-11
  0.8100E+02 -0.4990E+03  0.3177E+02 -0.2500E+03  0.9508E-05 -0.6843E+00 -0.7650E-02 -0.4706E-01  0.7276E+00 -0.3336E+01  0.4332E+01 -0.9364E+02  0.3795E-11
  0.8200E+02 -0.4998E+03  0.1279E+02 -0.2500E+03  0.9508E-05 -0.6980E+00 -0.6754E-02 -0.4720E-01  0.7145E+00 -0.3336E+01  0.4332E+01 -0.9147E+02  0.3848E-11
  0.8300E+02 -0.5000E+03 -0.6204E+01 -0.2500E+03  0.9508E-05 -0.7114E+00 -0.5856E-02 -0.4732E-01  0.7011E+00 -0.3336E+01  0.4332E+01 -0.8929E+02  0.3901E-11
  0.8400E+02 -0.4994E+03 -0.2519E+02 -0.2500E+03  0.9508E-05 -0.7246E+00 -0.4956E-02 -0.4742E-01  0.6875E+00 -0.3336E+01  0.4332E+01 -0.8711E+02  0.3950E-11
  0.8500E+02 -0.4980E+03 -0.4415E+02 -0.2500E+03  0.9508E-05 -0.7376E+00 -0.4054E-02 -0.4751E-01  0.6736E+00 -0.3336E+01  0.4332E+01 -0.8493E+02  0.4002E-11
  0.8600E+02 -0.4960E+03 -0.6304E+02 -0.2500E+03  0.9508E-05 -0.7502E+00 -0.3151E-02 -0.4757E-01  0.6595E+00 -0.3336E+01  0.4332E+01 -0.8276E+02  0.4052E-11
  0.8700E+02 -0.4933E+03 -0.8183E+02 -0.2500E+03  0.9508E-05 -0.7626E+00 -0.2247E-02 -0.4763E-01  0.6451E+00 -0.3336E+01  0.4332E+01 -0.8058E+02  0.4103E-11
  0.8800E+02 -0.4898E+03 -0.1005E+03 -0.2500E+03  0.9508E-05 -0.7747E+00 -0.1341E-02 -0.4766E-01  0.6305E+00 -0.3336E+01  0.4332E+01 -0.7840E+02  0.4156E-11
  0.8900E+02 -0.4856E+03 -0.1190E+03 -0.2500E+03  0.9508E-05 -0.7866E+00 -0.4357E-03 -0.4768E-01  0.6156E+00 -0.3336E+01  0.4332E+01 -0.7623E+02  0.4205E-11
  0.9000E+02 -0.4807E+03 -0.1374E+03 -0.2500E+03  0.9508E-05 -0.7981E+00  0.4701E-03 -0.4768E-01  0.6006E+00 -0.3336E+01  0.4332E+01 -0.7405E+02  0.4256E-11
  0.9100E+02 -0.4752E+03 -0.1556E+03 -0.2500E+03  0.9508E-05 -0.8094E+00  0.1376E-02 -0.4766E-01  0.5853E+00 -0.3336E+01  0.4332E+01 -0.7187E+02  0.4307E-11
  0.9200E+02 -0.4689E+03 -0.1735E+03 -0.2500E+03  0.9508E-05 -0.8204E+00  0.2281E-02 -0.4762E-01  0.5698E+00 -0.3336E+01  0.4332E+01 -0.6969E+02  0.4357E-11
  0.9300E+02 -0.4620E+03 -0.1912E+03 -0.2500E+03  0.9508E-05 -0.8311E+00  0.3185E-02 -0.4757E-01  0.5541E+00 -0.3336E+01  0.4332E+01 -0.6752E+02  0.4409E-11
  0.9400E+02 -0.4544E+03 -0.2086E+03 -0.2500E+03  0.9508E-05 -0.8414E+00  0.4089E-02 -0.4750E-01  0.5383E+00 -0.3336E+01  0.4332E+01 -0.6534E+02  0.4460E-11
  0.9500E+02 -0.4461E+03 -0.2257E+03 -0.2500E+03  0.9508E-05 -0.8515E+00  0.4990E-02 -0.4742E-01  0.5222E+00 -0.3336E+01  0.4332E+01 -0.6316E+02  0.4512E-11
  0.9600E+02 -0.4372E+03 -0.2425E+03 -0.2500E+03  0.9508E-05 -0.8613E+00  0.5890E-02 -0.4731E-01  0.5059E+00 -0.3336E+01  0.4332E+01 -0.6098E+02  0.4565E-11
  0.9700E+02 -0.4277E+03 -0.2590E+03 -0.2500E+03  0.9508E-05 -0.8707E+00  0.6788E-02 -0.4719E-01  0.4894E+00 -0.3336E+01  0.4332E+01 -0.5881E+02  0.4617E-11
  0.9800E+02 -0.4176E+03 -0.2750E+03 -0.2500E+03  0.9508E-05 -0.8799E+00  0.7684E-02 -0.4706E-01  0.4728E+00 -0.3336E+01  0.4332E+01 -0.5663E+02  0.4669E-11
  0.9900E+02 -0.4068E+03 -0.2907E+03 -0.2500E+03  0.9508E-05 -0.8887E+00  0.8576E-02 -0.4690E-01  0.4560E+00 -0.3336E+01  0.4332E+01 -0.5445E+02  0.4720E-11
  0.1000E+03 -0.3955E+03 -0.3059E+03 -0.2500E+03  0.9508E-05 -0.8972E+00  0.9466E-02 -0.4673E-01  0.4390E+00 -0.3336E+01  0.4332E+01 -0.5228E+02  0.4772E-11
  0.1010E+03 -0.3836E+03 -0.3207E+03 -0.2500E+03  0.9508E-05 -0.9054E+00  0.1035E-01 -0.4654E-01  0.4219E+00 -0.3336E+01  0.4332E+01 -0.5010E+02  0.4824E-11
  0.1020E+03 -0.3711E+03 -0.3351E+03 -0.2500E+03  0.9508E-05 -0.9132E+00  0.1123E-01 -0.4634E-01  0.4046E+00 -0.3336E+01  0.4332E+01 -0.4792E+02  0.4873E-11
  0.1030E+03 -0.3581E+03 -0.3489E+03 -0.2500E+03  0.9508E-05 -0.9208E+00  0.1211E-01 -0.4611E-01  0.3872E+00 -0.3336E+01  0.4332E+01 -0.4574E+02  0.4925E-11
  0.1040E+03 -0.3446E+03 -0.3623E+03 -0.2500E+03  0.9508E-05 -0.9279E+00  0.1299E-01 -0.4588E-01  0.3697E+00 -0.3336E+01  0.4332E+01 -0.4357E+02  0.4977E-11
  0.1050E+03 -0.3306E+03 -0.3751E+03 -0.2500E+03  0.9508E-05 -0.9348E+00  0.1386E-01 -0.4562E-01  0.3520E+00 -0.3336E+01  0.4332E+01 -0.4139E+02  0.5031E-11
  0.1060E+03 -0.3161E+03 -0.3874E+03 -0.2500E+03  0.9508E-05 -0.9413E+00  0.1472E-01 -0.4535E-01  0.3341E+00 -0.3336E+01  0.4332E+01 -0.3921E+02  0.5084E-11
  0.1070E+03 -0.3012E+03 -0.3991E+03 -0.2500E+03  0.9508E-05 -0.9475E+00  0.1558E-01 -0.4506E-01  0.3162E+00 -0.3336E+01  0.4332E+01 -0.3704E+02  0.5133E-11
  0.1080E+03 -0.2858E+03 -0.4103E+03 -0.2500E+03  0.9508E-05 -0.9533E+00  0.1643E-01 -0.4476E-01  0.2981E+00 -0.3336E+01  0.4332E+01 -0.3486E+02  0.5186E-11
  0.1090E+03 -0.2700E+03 -0.4208E+03 -0.2500E+03  0.9508E-05 -0.9588E+00  0.1728E-01 -0.4444E-01  0.2800E+00 -0.3336E+01  0.4332E+01 -0.3268E+02  0.5238E-11
  0.1100E+03 -0.2538E+03 -0.4308E+03 -0.2500E+03  0.9508E-05 -0.9640E+00  0.1812E-01 -0.4410E-01  0.2617E+00 -0.3336E+01  0.4332E+01 -0.3050E+02  0.5289E-11
  0.1110E+03 -0.2372E+03 -0.4401E+03 -0.2500E+03  0.9508E-05 -0.9688E+00  0.1896E-01 -0.4375E-01  0.2433E+00 -0.3336E+01  0.4332E+01 -0.2833E+02  0.5342E-11
  0.1120E+03 -0.2204E+03 -0.4488E+03 -0.2500E+03  0.9508E-05 -0.9732E+00  0.1978E-01 -0.4338E-01  0.2249E+00 -0.3336E+01  0.4332E+01 -0.2615E+02  0.5395E-11
  0.1130E+03 -0.2031E+03 -0.4569E+03 -0.2500E+03  0.9508E-05 -0.9773E+00  0.2060E-01 -0.4300E-01  0.2064E+00 -0.3336E+01  0.4332E+01 -0.2397E+02  0.5446E-11
  0.1140E+03 -0.1856E+03 -0.4643E+03 -0.2500E+03  0.9508E-05 -0.9811E+00  0.2142E-01 -0.4260E-01  0.1878E+00 -0.3336E+01  0.4332E+01 -0.2179E+02  0.5498E-11
  0.1150E+03 -0.1679E+03 -0.4710E+03 -0.2500E+03  0.9508E-05 -0.9844E+00  0.2222E-01 -0.4218E-01  0.1691E+00 -0.3336E+01  0.4332E+01 -0.1962E+02  0.5550E-11
  0.1160E+03 -0.1499E+03 -0.4770E+03 -0.2500E+03  0.9508E-05 -0.9875E+00  0.2302E-01 -0.4175E-01  0.1503E+00 -0.3336E+01  0.4332E+01 -0.1744E+02  0.5601E-11
  0.1170E+03 -0.1316E+03 -0.4824E+03 -0.2500E+03  0.9508E-05 -0.9902E+00  0.2381E-01 -0.4131E-01  0.1316E+00 -0.3336E+01  0.4332E+01 -0.1526E+02  0.5653E-11
  0.1180E+03 -0.1132E+03 -0.4870E+03 -0.2500E+03  0.9508E-05 -0.9925E+00  0.2459E-01 -0.4085E-01  0.1127E+00 -0.3336E+01  0.4332E+01 -0.1309E+02  0.5706E-11
  0.1190E+03 -0.9462E+02 -0.4910E+03 -0.2500E+03  0.9508E-05 -0.9944E+00  0.2536E-01 -0.4037E-01  0.9385E-01 -0.3336E+01  0.4332E+01 -0.1091E+02  0.5758E-11
  0.1200E+03 -0.7590E+02 -0.4942E+03 -0.2500E+03  0.9508E-05 -0.9960E+00  0.2612E-01 -0.3988E-01  0.7494E-01 -0.3336E+01  0.4332E+01 -0.8731E+01  0.5810E-11
  0.1210E+03 -0.5707E+02 -0.4967E+03 -0.2500E+03  0.9508E-05 -0.9973E+00  0.2688E-01 -0.3938E-01  0.5600E-01 -0.3336E+01  0.4332E+01 -0.6554E+01  0.5861E-11
  0.1220E+03 -0.3816E+02 -0.4985E+03 -0.2500E+03  0.9508E-05 -0.9982E+00  0.2762E-01 -0.3886E-01  0.3704E-01 -0.3336E+01  0.4332E+01 -0.4377E+01  0.5915E-11
  0.1230E+03 -0.1919E+02 -0.4996E+03 -0.2500E+03  0.9508E-05 -0.9987E+00  0.2835E-01 -0.3833E-01  0.1807E-01 -0.3336E+01  0.4332E+01 -0.2200E+01  0.5965E-11
  0.1240E+03 -0.1945E+00 -0.5000E+03 -0.2500E+03  0.9508E-05 -0.9989E+00  0.2908E-01 -0.3779E-01 -0.9058E-03 -0.3336E+01  0.4332E+01 -0.2228E-01  0.6015E-11
